Time,Current,Temperature
0,3.0,22
600,4.0,22.5
1200,5.0,23
1800,6.0,23.5
2400,7.0,24
3000,7.5,24.5
3600,7.0,25
4200,6.5,25.5
4800,6.0,26
5400,5.5,26.5
6000,5.0,27
6600,4.5,27.5
7200,4.0,28
7800,3.5,28.5
8400,3.0,29
9000,2.5,29.5
9600,2.0,30
10200,1.5,30.5
10800,1.0,31
11400,0.5,31.5
12000,0,32
12600,-3.0,31.5
13200,-6.0,31
13800,-9.0,30.5
14400,-8.0,30
15000,-7.0,29.5
15600,-6.0,29
16200,-5.0,28.5
16800,-4.0,28
17400,-3.0,27.5
18000,-2.0,27
18600,-1.0,26.5
19200,0,26