Time,Current,Temperature
0,0,25
600,-5,25.5
1200,-8,26
1800,-10,26.5
2400,-10,27
3000,-10,28
3600,-9.5,29
4200,-9,30
4800,-8.5,31
5400,-8,32
6000,-7.5,33
6600,-7,32.5
7200,-6,32
7800,-5,31.5
8400,-4,31
9000,-3,30.5
9600,-2,30
10200,-1,29.5
10800,0,29
11400,3,28.5
12000,2,28
12600,1,27.5
13200,0,27
