Time,Current,Temperature
0,5,25
600,6,25.5
1200,7,26
1800,8,26.5
2400,9,27
3000,10,28
3600,9.5,29
4200,9,30
4800,8.5,30.5
5400,8,31
6000,7.5,31.5
6600,8,32
7200,8.5,32.5
7800,9,33
8400,9.5,33.5
9000,10,34
9600,9,34.5
10200,8,35
10800,7,34.5
11400,6,34
12000,5,33.5
12600,4,33
13200,3,32.5
13800,2,32
14400,1,31.5
15000,0.5,31
15600,0,30.5
16200,-2,30
16800,-4,29.5
17400,-6,29
18000,-8,28.5
18600,-9,28
19200,-8,27.5
19800,-6,27
20400,-4,26.5
21000,-2,26
21600,-1,25.5
22200,0,25
